Time, Velocity
5.024799823760986328e+00, 7.113485554120638987e+00
5.148638963699340820e+00, 6.375660382710933050e+00
5.258106708526611328e+00, 5.336452641746005199e+00
5.367007732391357422e+00, 3.959082011654662558e+00
5.490922212600708008e+00, 2.874181277651624011e+00
5.614886760711669922e+00, 2.185853129320632249e+00
5.721710920333862305e+00, 1.628833526489980921e+00
5.830411195755004883e+00, 1.128608678609601013e+00
5.939729213714599609e+00, 1.943973589891708712e-03
6.049927234649658203e+00, 7.963291090196358141e-03
6.174247980117797852e+00, 4.968970668207706685e-03
6.286008596420288086e+00, 2.196848315215048884e-03
6.391481399536132812e+00, 8.987082948848671912e-04
6.518145322799682617e+00, 0.000000000000000000e+00
6.640018463134765625e+00, 0.000000000000000000e+00
6.763831853866577148e+00, 0.000000000000000000e+00
6.890157699584960938e+00, 0.000000000000000000e+00
7.015722274780273438e+00, 0.000000000000000000e+00
7.134947061538696289e+00, 0.000000000000000000e+00
7.305848360061645508e+00, 0.000000000000000000e+00
7.488242864608764648e+00, 0.000000000000000000e+00
7.640890598297119141e+00, 0.000000000000000000e+00
7.757246017456054688e+00, 0.000000000000000000e+00
7.866373538970947266e+00, 0.000000000000000000e+00
7.997133255004882812e+00, 0.000000000000000000e+00
8.119580268859863281e+00, 0.000000000000000000e+00
8.247318744659423828e+00, 0.000000000000000000e+00
8.365978479385375977e+00, 0.000000000000000000e+00
8.488148450851440430e+00, 3.043339239202862319e-03
8.615877151489257812e+00, 4.373008232082278846e-02
8.738388538360595703e+00, 9.792731998035653085e-02
8.858284711837768555e+00, 5.370321842530815237e-01
9.001687288284301758e+00, 8.170370799812247675e-01
9.116653680801391602e+00, 1.197459155600644420e+00
9.230463981628417969e+00, 1.699370282331696957e+00
9.354723215103149414e+00, 2.100326207401081557e+00
9.480975151062011719e+00, 2.432776793725593301e+00
9.596297502517700195e+00, 2.701673451857454999e+00
9.716039657592773438e+00, 3.027033075605810808e+00
9.822134494781494141e+00, 3.372446088827619981e+00
9.953220605850219727e+00, 3.703105182544596641e+00
1.007339692115783691e+01, 4.143609757114348646e+00
1.019824814796447754e+01, 4.477265306419209168e+00
1.030624032020568848e+01, 4.827385334742750445e+00
1.044654583930969238e+01, 5.276523971693350745e+00
1.056413197517395020e+01, 5.655781126271517856e+00
1.070319652557373047e+01, 5.912114049848901765e+00
1.083085370063781738e+01, 6.833288309300671770e+00
1.095312571525573730e+01, 7.491308188316530448e+00
1.106436920166015625e+01, 8.020076230305127396e+00
1.119547677040100098e+01, 8.422757045840855383e+00
1.131198048591613770e+01, 8.869190933337300464e+00
1.147340750694274902e+01, 9.020775312269702084e+00
1.159628129005432129e+01, 9.552967602711662565e+00
1.171610355377197266e+01, 1.006155520652143842e+01
1.183934354782104492e+01, 1.044460399650048466e+01
1.196645569801330566e+01, 1.081903655243607965e+01
1.210169720649719238e+01, 1.114984647964571352e+01
1.223373675346374512e+01, 1.148652130570538077e+01
1.240695858001708984e+01, 1.187736020272471116e+01
1.260834789276123047e+01, 1.294640395866900207e+01
1.273604917526245117e+01, 1.343487052436463891e+01
1.286854076385498047e+01, 1.384990682324815836e+01
1.297535085678100586e+01, 1.423675697778543459e+01
1.309891128540039062e+01, 1.455001225218802219e+01
1.320688295364379883e+01, 1.479511200251721448e+01
1.331661844253540039e+01, 1.507017788165109629e+01
1.342443513870239258e+01, 1.532920757352672680e+01
1.353511857986450195e+01, 1.560286229821657855e+01
1.364536285400390625e+01, 1.585488544621373919e+01
1.376715183258056641e+01, 1.615565562350696283e+01
1.389237213134765625e+01, 1.642251649118936996e+01
1.399832224845886230e+01, 1.667990143581126716e+01
1.410823416709899902e+01, 1.688061267498715878e+01
1.423196196556091309e+01, 1.710938875720255581e+01
1.435554361343383789e+01, 1.757108693635798602e+01
1.446578693389892578e+01, 1.790048631913074928e+01
1.457075166702270508e+01, 1.820809987842446986e+01
1.469639539718627930e+01, 1.847354449386923392e+01
1.482263588905334473e+01, 1.872672106135093273e+01
1.492735910415649414e+01, 1.896809443164239894e+01
1.505055761337280273e+01, 1.920157448049774374e+01
1.518631267547607422e+01, 1.936933599850380716e+01
1.530067300796508789e+01, 1.968539188842779453e+01
1.540929079055786133e+01, 1.991173296486191191e+01
1.553530287742614746e+01, 2.014369304353418144e+01
1.566399025917053223e+01, 2.036587953107570570e+01
1.576642298698425293e+01, 2.056797459176765486e+01
1.588369631767272949e+01, 2.077887384231670964e+01
1.598621487617492676e+01, 2.099380249926131370e+01
1.621833443641662598e+01, 2.109976764478521716e+01
1.636027193069458008e+01, 2.151264938213240896e+01
1.646880221366882324e+01, 2.172534284607179345e+01
1.659298706054687500e+01, 2.194793811942120954e+01
1.671743679046630859e+01, 2.216890175299082699e+01
1.684240984916687012e+01, 2.238662344638840196e+01
1.696907496452331543e+01, 2.259644481684629724e+01
1.707811880111694336e+01, 2.279591071958571291e+01
1.720063471794128418e+01, 2.298741932969990032e+01
1.732620906829833984e+01, 2.308822507252894951e+01
1.745086956024169922e+01, 2.344423675749220592e+01
1.757539010047912598e+01, 2.368481209485744188e+01
1.768457007408142090e+01, 2.387589617854060720e+01
1.779324412345886230e+01, 2.405769576440973978e+01
1.790381717681884766e+01, 2.421503416945513365e+01
1.801226782798767090e+01, 2.431905121985290563e+01
1.813695931434631348e+01, 2.434873663073206629e+01
1.826021909713745117e+01, 2.430520864300020989e+01
1.838509011268615723e+01, 2.423346732123650327e+01
1.851174616813659668e+01, 2.417217173277244768e+01
1.863712358474731445e+01, 2.414274957535966593e+01
1.875860810279846191e+01, 2.414362972245335470e+01
1.888232898712158203e+01, 2.416237731098928521e+01
1.899087953567504883e+01, 2.418492671102294977e+01
1.909958004951477051e+01, 2.420294178030129473e+01
1.922505044937133789e+01, 2.421196206016488972e+01
1.934851384162902832e+01, 2.421089280097262275e+01
1.947188687324523926e+01, 2.420366783116341480e+01
1.959647727012634277e+01, 2.419559926024148666e+01
1.970568370819091797e+01, 2.419039612880818879e+01
1.981343102455139160e+01, 2.418763729994025624e+01
1.993926262855529785e+01, 2.418828278398105169e+01
2.006370067596435547e+01, 2.419081574532622980e+01
2.017123746871948242e+01, 2.419357983799935852e+01
2.028252053260803223e+01, 2.419543470384866168e+01
2.040626335144042969e+01, 2.419747341579417466e+01
2.053010344505310059e+01, 2.419722826227551238e+01
2.065506029129028320e+01, 2.419604474811675487e+01
2.077935338020324707e+01, 2.419494364114804341e+01
2.090495395660400391e+01, 2.419337470494944853e+01
2.103062748908996582e+01, 2.419284658003737576e+01
2.115374755859375000e+01, 2.419299478609027432e+01
2.130911684036254883e+01, 2.419360513378532929e+01
2.141911959648132324e+01, 2.419463750572435146e+01
2.171391034126281738e+01, 2.419481089562123444e+01
2.189949345588684082e+01, 2.419493474375903830e+01
2.204120826721191406e+01, 2.419566081402305002e+01
2.216524052619934082e+01, 2.419561110155816408e+01
2.227403688430786133e+01, 2.419530204902839543e+01
2.238344931602478027e+01, 2.419410653644569109e+01
2.249389624595642090e+01, 2.419369959913969481e+01
2.261821627616882324e+01, 2.419366880757629090e+01
2.272590088844299316e+01, 2.419392776352928820e+01
2.285134220123291016e+01, 2.419402908482025083e+01
2.299147391319274902e+01, 2.419373174594131015e+01
2.311604118347167969e+01, 2.419157112408423416e+01
2.324096798896789551e+01, 2.418776733112868271e+01
2.336672496795654297e+01, 2.418119882641791563e+01
2.349110007286071777e+01, 2.417080301056975600e+01
2.362916898727416992e+01, 2.416181508406659972e+01
2.373963284492492676e+01, 2.415575216543587800e+01
2.386220598220825195e+01, 2.415532783875840650e+01
2.397056770324707031e+01, 2.415915543419801992e+01
2.409663367271423340e+01, 2.416676369685351133e+01
2.420601105690002441e+01, 2.417328141389729268e+01
2.433046483993530273e+01, 2.418191580327234647e+01
2.443948650360107422e+01, 2.418453024436958998e+01
2.456544685363769531e+01, 2.418271814362648087e+01
2.467679357528686523e+01, 2.417900068221601728e+01
2.480183315277099609e+01, 2.417839912178899553e+01
